Time	Amplitude
0.0	0.0
0.0001666944490748458	0.7056138016666484
0.0003333888981496916	1.3959861163605094
0.0005000833472245374	2.0562389281323847
0.0006667777962993832	2.672211690257982
0.000833472245374229	3.2307966431626154
0.0010001666944490749	3.7202467675078728
0.0011668611435239206	4.1304484528516685
0.0013335555925987664	4.453151946771542
0.0015002500416736123	4.682153824313666
0.001666944490748458	4.813427048535788
0.0018336389398233039	4.845195640696945
0.0020003333888981498	4.777952500954986
0.0021670278379729954	4.6144204728977725
0.002333722287047841	4.359458282824773
0.002500416736122687	4.019914463081527
0.002667111185197533	3.6044337456350157
0.0028338056342723785	3.123221648472453
0.0030005000833472247	2.587774038783279
0.0031671945324220703	2.0105793142002217
0.003333888981496916	1.4048014739110948
0.003500583430571762	0.7839527394573262
0.0036672778796466078	0.16156452214829664
0.0038339723287214534	-0.44913458053289135
0.0040006667777962995	-1.0355254366110658
0.004167361226871145	-1.5858819467927474
0.004334055675945991	-2.089624594939446
0.004500750125020837	-2.5375380332744983
0.004667444574095682	-2.9219478885848886
0.004834139023170528	-3.2368532255556213
0.005000833472245374	-3.4780124291801906
0.00516752792132022	-3.6429816290831547
0.005334222370395066	-3.7311061432871004
0.005500916819469912	-3.7434667270211066
0.005667611268544757	-3.682783635258828
0.005834305717619603	-3.5532826107098945
0.006001000166694449	-3.3605278611992655
0.0061676946157692945	-3.1112278662021513
0.006334389064844141	-2.8130204321484196
0.006501083513918987	-2.474243786835934
0.006667777962993832	-2.1037006585568085
0.006834472412068678	-1.710422225894263
0.007001166861143524	-1.3034385569076337
0.007167861310218369	-0.8915616953316817
0.0073345557592932155	-0.4831869161002108
0.007501250208368062	-0.08611688774575232
0.007667944657442907	0.29258742591734554
0.007834639106517752	0.6467262856328743
0.008001333555592599	0.9710493256829689
0.008168028004667444	1.2613116045664974
0.00833472245374229	1.5142978777230973
0.008501416902817137	1.7278164093501232
0.008668111351891982	1.9006645544756149
0.008834805800966827	2.0325691459343345
0.009001500250041674	2.1241053900247686
0.00916819469911652	2.176598490729627
0.009334889148191364	2.1920125723815227
0.009501583597266211	2.1728316474164764
0.009668278046341057	2.121937378340703
0.009834972495415902	2.0424882162354336
0.010001666944490749	1.9378041728063855
0.010168361393565594	1.8112610152309454
0.01033505584264044	1.6661970836341187
0.010501750291715286	1.5058352446009469
0.010668444740790132	1.333221738365697
0.010835139189864977	1.151182881850449
0.011001833638939824	0.96229978512495
0.011168528088014669	0.7689004555310545
0.011335222537089514	0.5730679308310576
0.011501916986164361	0.3766624272199949
0.011668611435239206	0.18135493362002492
0.011835305884314052	-0.011330749919988503
0.012002000333388899	-0.19997082961226337
0.012168694782463744	-0.38319264296314726
0.012335389231538589	-0.5596275451568123
0.012502083680613436	-0.7278688634879666
0.012668778129688281	-0.8864379375042508
0.012835472578763127	-1.0337608435685144
0.013002167027837973	-1.1681578706490678
0.013168861476912819	-1.2878471904760453
0.013335555925987664	-1.3909634744001202
0.013502250375062511	-1.47559147855549
0.013668944824137356	-1.5398138770424556
0.013835639273212201	-1.5817718991304914
0.014002333722287048	-1.5997366497491903
0.014169028171361894	-1.5921883900328706
0.014335722620436739	-1.5579005511159183
0.014502417069511586	-1.496024870986366
0.014669111518586431	-1.406173797997996
0.014835805967661276	-1.2884962077350768
0.015002500416736123	-1.1437425390758253
0.015169194865810968	-0.973315671619722
0.015335889314885814	-0.7793042354925565
0.01550258376396066	-0.5644955556467119
0.015669278213035504	-0.3323660705209973
0.015835972662110353	-0.08704780885754126
0.016002667111185198	0.16672966604588768
0.016169361560260043	0.42372155634920283
0.01633605600933489	0.6782731835270343
0.016502750458409734	0.9244463122612652
0.01666944490748458	1.1561635080600743
0.016836139356559428	1.3673668120293287
0.017002833805634273	1.5521863376476628
0.017169528254709118	1.705113844030823
0.017336222703783963	1.8211759406403776
0.01750291715285881	1.8961013476011268
0.017669611601933654	1.9264765862379252
0.017836306051008503	1.9098846127116031
0.018003000500083348	1.8450212340837535
0.018169694949158193	1.7317846547927118
0.01833638939823304	1.5713341801664722
0.018503083847307884	1.3661149340977232
0.01866977829638273	1.1198464068157645
0.018836472745457578	0.8374737075523613
0.019003167194532423	0.5250815237049606
0.019169861643607268	0.18977194789221186
0.019336556092682113	-0.16049150962973968
0.01950325054175696	-0.5170702906406821
0.019669944990831804	-0.8708630707150878
0.019836639439906652	-1.2125385580287815
0.020003333888981498	-1.5327826333652401
0.020170028338056343	-1.8225530466200852
0.020336722787131188	-2.0733344709269597
0.020503417236206033	-2.277386512936428
0.02067011168528088	-2.4279772972437472
0.020836806134355727	-2.519595488101549
0.021003500583430573	-2.5481340789329914
0.021170195032505418	-2.5110399593103967
0.021336889481580263	-2.407424142724629
0.021503583930655108	-2.238128583061125
0.021670278379729953	-2.0057466939876116
0.0218369728288048	-1.714595979420245
0.022003667277879647	-1.370642547066792
0.022170361726954493	-0.9813786703137581
0.022337056176029338	-0.5556559446020888
0.022503750625104183	-0.10347791099625492
0.02267044507417903	0.3642427488294805
0.022837139523253874	0.8359562437254066
0.023003833972328722	1.299769797452333
0.023170528421403568	1.7437560006324182
0.023337222870478413	2.1562670133585398
0.023503917319553258	2.5262459694076584
0.023670611768628103	2.8435269102841545
0.02383730621770295	3.0991148068971244
0.024004000666777797	3.285437703805209
0.024170695115852642	3.3965637333768406
0.024337389564927488	3.428376675468674
0.024504084014002333	3.3787048562537247
0.024670778463077178	3.2473994557175905
0.024837472912152023	3.036359690270186
0.025004167361226872	2.7495038142851898
0.025170861810301717	2.3926863990103535
0.025337556259376563	1.9735638547657
0.025504250708451408	1.5014116183401613
0.025670945157526253	0.9868977891353117
0.025837639606601098	0.44181922477153523
0.026004334055675947	-0.12119283656731272
0.026171028504750792	-0.6889897048710463
0.026337722953825637	-1.2482361677173404
0.026504417402900483	-1.7857464866440227
0.026671111851975328	-2.2888163992544635
0.026837806301050173	-2.7455421973662353
0.027004500750125022	-3.1451183375802816
0.027171195199199867	-3.478105669142146
0.027337889648274712	-3.7366632155801653
0.027504584097349558	-3.9147374954305083
0.027671278546424403	-4.0082045817059875
0.027837972995499248	-4.014961443141673
0.028004667444574097	-3.9349645424996718
0.028171361893648942	-3.7702151457528363
0.028338056342723787	-3.524692277095047
0.028504750791798632	-3.2042356949681983
0.028671445240873478	-2.816382621730314
0.028838139689948323	-2.370163195112463
0.02900483413902317	-1.8758606881203925
0.029171528588098017	-1.3447434354707601
0.029338223037172862	-0.7887760848775198
0.029504917486247707	-0.22031824300748393
0.029671611935322553	0.3481812017098702
0.029838306384397398	0.9044858270619031
0.030005000833472247	1.4368615111651777
0.030171695282547092	1.9343468621262323
0.030338389731621937	2.3869974548655173
0.030505084180696782	2.786097972689981
0.030671778629771627	3.124337391303394
0.030838473078846473	3.395943503235167
0.03100516752792132	3.5967743240108616
0.031171861976996167	3.7243652086485164
0.03133855642607101	3.7779317983669705
0.03150525087514586	3.7583301733769003
0.031671945324220706	3.6679767706842146
0.03183863977329555	3.5107317012740253
0.032005334222370396	3.291750038141829
0.03217202867144524	3.017306419569412
0.03233872312052009	2.6945989006253477
0.03250541756959493	2.331538376135291
0.03267211201866978	1.9365300829107581
0.032838806467744626	1.5182536671549776
0.03300550091681947	1.0854480806136984
0.033172195365894316	0.6467071584842528
0.03333888981496916	0.2102911514527327
0.03350558426404401	-0.2160412432241039
0.033672278713118856	-0.625176653336365
0.0338389731621937	-1.0107638427057133
0.034005667611268546	-1.3673017881647533
0.03417236206034339	-1.6901982597940095
0.034339056509418237	-1.9757991386460123
0.03450575095849308	-2.221389656305165
0.03467244540756793	-2.425169612989337
0.034839139856642776	-2.586205397840538
0.03500583430571762	-2.704362273084777
0.035172528754792466	-2.7802208742555288
0.03533922320386731	-2.8149822085230967
0.03550591765294216	-2.810365595032161
0.035672612102017005	-2.7685039837050516
0.03583930655109185	-2.6918409168740123
0.036006001000166696	-2.583033071752415
0.03617269544924154	-2.4448618568391556
0.036339389898316386	-2.2801569522695457
0.03650608434739123	-2.091734007210725
0.03667277879646608	-1.8823479640225858
0.036839473245540925	-1.6546626984895183
0.03700616769461577	-1.4112368783865243
0.037172862143690616	-1.1545251792994013
0.03733955659276546	-0.8868932861258043
0.037506251041840306	-0.6106444779981068
0.037672945490915155	-0.3280550673018404
0.03783963993999	-0.041415559839509064
0.038006334389064846	0.24692586183793502
0.03817302883813969	0.5345210463972448
0.038339723287214536	0.8187842510078345
0.03850641773628938	1.0969624778999747
0.038673112185364227	1.3661167274320052
0.038839806634439075	1.6231166599058715
0.03900650108351392	1.8646505784515177
0.039173195532588766	2.0872519721742187
0.03933988998166361	2.2873431177431147
0.039506584430738456	2.461295456722329
0.039673278879813305	2.6055056749512575
0.03983997332888815	2.716485639585035
0.040006667777962995	2.7909636290066917
0.04017336222703784	2.8259936492346402
0.040340056676112686	2.8190690936775953
0.04050675112518753	2.7682365936808475
0.040673445574262376	2.6722056435299306
0.040840140023337225	2.530449478719131
0.04100683447241207	2.343292748153935
0.041173528921486915	2.111981751506761
0.04134022337056176	1.83873340819281
0.041506917819636606	1.5267596744808096
0.041673612268711455	1.180264814586766
0.041840306717786296	0.8044137395257258
0.042007001166861145	0.4052705288203049
0.04217369561593599	-0.010292784037552738
0.042340390065010836	-0.4347160828926423
0.04250708451408568	-0.8598976195790502
0.042673778963160526	-1.277364003242428
0.042840473412235375	-1.6784597926069331
0.043007167861310217	-2.054551960485589
0.043173862310385065	-2.3972438340326203
0.04334055675945991	-2.6985926029514093
0.043507251208534756	-2.9513241517732314
0.0436739456576096	-3.149038826657399
0.043840640106684446	-3.2864018011830045
0.044007334555759295	-3.3593119621617116
0.04417402900483414	-3.3650436918851163
0.044340723453908985	-3.302356567173552
0.04450741790298383	-3.171568811566367
0.044674112352058676	-2.9745913026034274
0.044840806801133525	-2.714920023822231
0.045007501250208366	-2.397586028909298
0.045174195699283215	-2.0290632180884147
0.04534089014835806	-1.617135476712854
0.045507584597432905	-1.170725954454715
0.04567427904650775	-0.6996924318864244
0.045840973495582596	-0.21459379240955773
0.046007667944657445	0.27356644323901286
0.046174362393732286	0.7536127862497116
0.046341056842807135	1.2144793317823204
0.04650775129188198	1.6454924952086256
0.046674445740956826	2.0366470804813868
0.046841140190031674	2.3788679066919656
0.047007834639106516	2.6642495290742243
0.047174529088181365	2.886267126202696
0.047341223537256207	3.0399523721211414
0.047507917986331055	3.1220290501671
0.0476746124354059	3.1310042678005208
0.047841306884480746	3.0672123669915194
0.048008001333555594	2.9328099565326626
0.048174695782630436	2.7317218816482556
0.048341390231705285	2.469539351084206
0.04850808468078013	2.1533728203395137
0.048674779129854975	1.7916635402603478
0.048841473578929824	1.3939588831330816
0.049008168028004666	0.9706576170413225
0.049174862477079515	0.5327321811988394
0.049341556926154356	0.09143569309533917
0.049508251375229205	-0.34199812842569094
0.04967494582430405	-0.7566537258293711
0.049841640273378895	-1.14222278482205
0.050008334722453744	-1.4892755465134417
0.050175029171528586	-1.7895067758048941
0.050341723620603435	-2.0359495494313093
0.050508418069678276	-2.2231509649159973
0.050675112518753125	-2.3473049818256984
0.050841806967827974	-2.406338855786166
0.051008501416902816	-2.3999509761713735
0.051175195865977664	-2.329599329586463
0.051341890315052506	-2.1984412408008747
0.051508584764127355	-2.0112264477397246
0.051675279213202197	-1.7741469054276222
0.051841973662277045	-1.494647945455945
0.052008668111351894	-1.181206506030615
0.052175362560426736	-0.8430830608580822
0.052342057009501584	-0.4900545864166597
0.052508751458576426	-0.132136396187025
0.052675445907651275	0.2206990762886908
0.052842140356726124	0.5587984522730375
0.053008834805800965	0.8730906766730525
0.053175529254875814	1.1553299782467739
0.053342223703950656	1.3983117962751654
0.053508918153025505	1.5960558206310487
0.053675612602100346	1.7439513300747511
0.053842307051175195	1.8388611845981964
0.054009001500250044	1.879182094884091
0.054175695949324885	1.8648601159203975
0.054342390398399734	1.7973616515450863
0.054509084847474576	1.6796015710780072
0.054675779296549425	1.5158312882513993
0.054842473745624266	1.3114907987848996
0.055009168194699115	1.0730296821205778
0.055175862643773964	0.8077029155813007
0.055342557092848806	0.5233480015646588
0.055509251541923654	0.2281503525498948
0.055675945990998496	-0.06959589640649311
0.055842640440073345	-0.3617244764690368
0.056009334889148193	-0.640424022734417
0.056176029338223035	-0.8984490378092252
0.056342723787297884	-1.1293088816259098
0.056509418236372726	-1.327429683010416
0.056676112685447574	-1.4882850078436818
0.056842807134522416	-1.608492170385175
0.057009501583597265	-1.6858722034780187
0.057176196032672114	-1.7194726729161733
0.057342890481746955	-1.709553693390872
0.057509584930821804	-1.657538640708066
0.057676279379896646	-1.5659321215542576
0.057842973828971495	-1.4382087249041946
0.05800966827804634	-1.2786769089267025
0.058176362727121185	-1.092323049374546
0.058343057176196034	-0.8846411708219473
0.058509751625270875	-0.6614541876454652
0.058676446074345724	-0.42873259062767255
0.058843140523420566	-0.19241642734451725
0.059009834972495415	0.04175385359907913
0.05917652942157026	0.2683925803577818
0.059343223870645105	0.48260555904724833
0.059509918319719954	0.6801045515089789
0.059676612768794796	0.8572966432280282
0.059843307217869644	1.0113465532549797
0.06001000166694449	1.1402109209989075
0.060176696116019335	1.2426445983641545
0.060343390565094183	1.3181799458055334
0.060510085014169025	1.367081044586938
0.060676779463243874	1.3902755642729105
0.060843473912318716	1.3892677370053876
0.061010168361393564	1.3660364653834334
0.06117686281046841	1.3229230106980432
0.061343557259543255	1.26251296034953
0.061510251708618104	1.187517250886314
0.061676946157692945	1.1006569257641945
0.061843640606767794	1.0045560402293412
0.06201033505584264	0.9016467011363459
0.062177029504917485	0.7940896639120539
0.06234372395399233	0.6837132239775459
0.06251041840306718	0.5719723615058909
0.06267711285214202	0.459929255324948
0.06284380730121687	0.34825540511176734
0.06301050175029171	0.23725472285188998
0.06317719619936656	0.12690610688206383
0.06334389064844141	0.016923225545929732
0.06351058509751625	-0.09317145881913416
0.0636772795465911	-0.20396197580454253
0.06384397399566594	-0.3160474373432745
0.06401066844474079	-0.4299482185017202
0.06417736289381563	-0.5460141418245131
0.06434405734289048	-0.664339036485813
0.06451075179196533	-0.7846858331954627
0.06467744624104017	-0.9064259839180937
0.06484414069011502	-1.0284964745550012
0.06501083513918986	-1.1493770467182889
0.06517752958826471	-1.267089484249934
0.06534422403733955	-1.3792199778326695
0.0655109184864144	-1.4829646866095125
0.06567761293548925	-1.5751977009420357
0.0658443073845641	-1.652559708037241
0.06601100183363894	-1.7115648047593852
0.06617769628271379	-1.7487221208424315
0.06634439073178863	-1.7606682399094107
0.06651108518086347	-1.744305860791146
0.06667777962993832	-1.696943748961534
0.06684447407901317	-1.6164328037765996
0.06701116852808801	-1.5012930222995373
0.06717786297716286	-1.3508262794528458
0.06734455742623771	-1.1652101654491103
0.06751125187531255	-0.9455686170499806
0.0676779463243874	-0.6940157352792151
0.06784464077346224	-0.41366997923152793
0.06801133522253709	-0.10863683900539112
0.06817802967161193	0.21604090827532718
0.06834472412068678	0.5544651990470709
0.06851141856976163	0.8999957028924425
0.06867811301883647	1.2453915608525779
0.06884480746791131	1.582978529756707
0.06901150191698616	1.9048372920588426
0.06917819636606101	2.203007879580574
0.06934489081513585	2.469704493824905
0.0695115852642107	2.6975345094129257
0.06967827971328555	2.8797151397251004
0.0698449741623604	3.0102811381233856
0.07001166861143523	3.084277010915133
0.07017836306051009	3.097927529546717
0.07034505750958493	3.04878084270316
0.07051175195865977	2.935819190771269
0.07067844640773462	2.759533096017755
0.07084514085680947	2.521955916722588
0.07101183530588431	2.226656782389981
0.07117852975495916	1.8786911360805725
0.07134522420403401	1.4845093620136343
0.07151191865310885	1.0518252332790448
0.0716786131021837	0.5894471366564493
0.07184530755125854	0.10707618076809922
0.07201200200033339	-0.3849236663572875
0.07217869644940823	-0.8757773670780732
0.07234539089848308	-1.3545657627246381
0.07251208534755793	-1.8105003828583577
0.07267877979663277	-2.2331985013456883
0.07284547424570761	-2.612950734931223
0.07301216869478246	-2.9409736193468694
0.07317886314385731	-3.209639964568684
0.07334555759293215	-3.41268037494776
0.073512252042007	-3.5453501051215404
0.07367894649108185	-3.604556386056216
0.07384564094015669	-3.5889424688609024
0.07401233538923153	-3.4989258639703267
0.07417902983830639	-3.336689563013672
0.07434572428738123	-3.1061263806833805
0.07451241873645607	-2.8127379033507016
0.07467911318553092	-2.46349083912792
0.07484580763460577	-2.0666347908355607
0.07501250208368061	-1.6314865816317143
0.07517919653275545	-1.168187219248342
0.07534589098183031	-0.6874383598777998
0.07551258543090515	-0.2002257033614333
0.07567927987998	0.2824628996358683
0.07584597432905484	0.7499167305634289
0.07601266877812969	1.191971095811135
0.07617936322720453	1.5992583975912744
0.07634605767627937	1.9634345188550673
0.07651275212535423	2.2773744274064103
0.07667944657442907	2.5353318507069202
0.07684614102350391	2.7330589667120684
0.07701283547257876	2.8678832633407993
0.07717952992165361	2.938740002378276
0.07734622437072845	2.9461600430586046
0.0775129188198033	2.8922140956415276
0.07767961326887815	2.7804157456863914
0.07784630771795299	2.615586776738919
0.07801300216702783	2.403689386893148
0.07817969661610268	2.1516308112125873
0.07834639106517753	1.8670466002560624
0.07851308551425237	1.5580693436651238
0.07867977996332721	1.2330899520456464
0.07884647441240207	0.9005187121633533
0.07901316886147691	0.5685532087720155
0.07917986331055175	0.24495986726082597
0.07934655775962661	-0.0631246723880996
0.07951325220870145	-0.3493668688607453
0.0796799466577763	-0.6083796879035988
0.07984664110685114	-0.8358325336638668
0.08001333555592599	-1.028525247468401
0.08018003000500083	-1.1844248954290335
0.08034672445407567	-1.3026652652226325
0.08051341890315053	-1.3835101748896097
0.08068011335222537	-1.4282828248583803
0.08084680780130021	-1.4392644630514773
0.08101350225037506	-1.4195665494779854
0.08118019669944991	-1.372981373029737
